#Photon    Coherent Incoher. Photoel.
#Energy    Scatter. Scatter. Absorb.
#
1.000E-03 7.833E+00 4.981E-03 7.029E+03
1.028E-03 7.811E+00 5.199E-03 6.599E+03
1.056E-03 7.789E+00 5.419E-03 6.206E+03
1.086E-03 7.766E+00 5.659E-03 5.821E+03
1.116E-03 7.744E+00 5.902E-03 5.470E+03
1.147E-03 7.721E+00 6.156E-03 5.138E+03
1.178E-03 7.698E+00 6.412E-03 4.834E+03
1.211E-03 7.674E+00 6.688E-03 4.538E+03
1.245E-03 7.649E+00 6.974E-03 4.260E+03
1.279E-03 7.624E+00 7.263E-03 4.006E+03
1.315E-03 7.597E+00 7.570E-03 3.760E+03
1.351E-03 7.570E+00 7.879E-03 3.535E+03
1.389E-03 7.541E+00 8.207E-03 3.318E+03
1.427E-03 7.511E+00 8.535E-03 3.119E+03
1.467E-03 7.480E+00 8.882E-03 2.928E+03
1.507E-03 7.447E+00 9.228E-03 2.752E+03
1.549E-03 7.413E+00 9.591E-03 2.576E+03
1.592E-03 7.377E+00 9.962E-03 2.412E+03
1.636E-03 7.340E+00 1.034E-02 2.259E+03
1.682E-03 7.301E+00 1.074E-02 2.113E+03
1.728E-03 7.261E+00 1.113E-02 1.980E+03
1.776E-03 7.219E+00 1.154E-02 1.854E+03
1.825E-03 7.175E+00 1.196E-02 1.737E+03
1.876E-03 7.130E+00 1.240E-02 1.625E+03
1.928E-03 7.083E+00 1.284E-02 1.522E+03
1.981E-03 7.035E+00 1.329E-02 1.426E+03
2.036E-03 6.985E+00 1.376E-02 1.333E+03
2.093E-03 6.933E+00 1.425E-02 1.244E+03
2.151E-03 6.880E+00 1.474E-02 1.162E+03
2.211E-03 6.825E+00 1.525E-02 1.085E+03
2.272E-03 6.769E+00 1.576E-02 1.014E+03
2.335E-03 6.711E+00 1.629E-02 9.474E+02
2.400E-03 6.651E+00 1.684E-02 8.848E+02
2.466E-03 6.591E+00 1.739E-02 8.270E+02
2.535E-03 6.528E+00 1.796E-02 7.720E+02
2.605E-03 6.465E+00 1.854E-02 7.214E+02
2.677E-03 6.400E+00 1.913E-02 6.740E+02
2.751E-03 6.333E+00 1.973E-02 6.297E+02
2.828E-03 6.265E+00 2.035E-02 5.879E+02
2.906E-03 6.196E+00 2.098E-02 5.494E+02
2.987E-03 6.125E+00 2.163E-02 5.130E+02
3.070E-03 6.052E+00 2.228E-02 4.785E+02
3.155E-03 5.979E+00 2.295E-02 4.464E+02
3.242E-03 5.905E+00 2.362E-02 4.165E+02
3.332E-03 5.828E+00 2.431E-02 3.885E+02
3.424E-03 5.750E+00 2.501E-02 1.202E+03
3.519E-03 5.671E+00 2.574E-02 1.124E+03
3.617E-03 5.590E+00 2.647E-02 1.445E+03
3.717E-03 5.508E+00 2.722E-02 1.352E+03
3.820E-03 5.426E+00 2.798E-02 1.449E+03
3.926E-03 5.342E+00 2.876E-02 1.358E+03
4.035E-03 5.258E+00 2.955E-02 1.271E+03
4.147E-03 5.173E+00 3.036E-02 1.185E+03
4.262E-03 5.087E+00 3.117E-02 1.105E+03
4.380E-03 5.000E+00 3.200E-02 1.030E+03
4.502E-03 4.913E+00 3.285E-02 9.603E+02
4.627E-03 4.826E+00 3.371E-02 8.953E+02
4.755E-03 4.739E+00 3.458E-02 8.349E+02
4.887E-03 4.651E+00 3.547E-02 7.784E+02
5.022E-03 4.563E+00 3.637E-02 7.258E+02
5.162E-03 4.475E+00 3.729E-02 6.757E+02
5.305E-03 4.387E+00 3.823E-02 6.294E+02
5.452E-03 4.300E+00 3.919E-02 5.862E+02
5.603E-03 4.213E+00 4.016E-02 5.460E+02
5.758E-03 4.126E+00 4.115E-02 5.086E+02
5.918E-03 4.039E+00 4.216E-02 4.737E+02
6.082E-03 3.954E+00 4.318E-02 4.409E+02
6.251E-03 3.868E+00 4.422E-02 4.100E+02
6.424E-03 3.784E+00 4.528E-02 3.814E+02
6.602E-03 3.701E+00 4.635E-02 3.547E+02
6.785E-03 3.618E+00 4.743E-02 3.299E+02
6.974E-03 3.536E+00 4.854E-02 3.068E+02
7.167E-03 3.456E+00 4.965E-02 2.853E+02
7.366E-03 3.376E+00 5.078E-02 2.654E+02
7.570E-03 3.297E+00 5.191E-02 2.468E+02
7.780E-03 3.220E+00 5.306E-02 2.296E+02
7.996E-03 3.143E+00 5.422E-02 2.135E+02
8.217E-03 3.069E+00 5.538E-02 1.983E+02
8.445E-03 2.995E+00 5.655E-02 1.842E+02
8.680E-03 2.922E+00 5.773E-02 1.710E+02
8.920E-03 2.850E+00 5.891E-02 1.589E+02
9.168E-03 2.780E+00 6.009E-02 1.475E+02
9.422E-03 2.710E+00 6.128E-02 1.370E+02
9.683E-03 2.642E+00 6.247E-02 1.272E+02
9.952E-03 2.575E+00 6.366E-02 1.182E+02
1.023E-02 2.509E+00 6.485E-02 1.096E+02
1.051E-02 2.444E+00 6.603E-02 1.017E+02
1.080E-02 2.380E+00 6.721E-02 9.430E+01
1.110E-02 2.317E+00 6.839E-02 8.747E+01
1.141E-02 2.254E+00 6.957E-02 8.113E+01
1.173E-02 2.193E+00 7.074E-02 7.524E+01
1.205E-02 2.133E+00 7.190E-02 6.979E+01
1.239E-02 2.073E+00 7.306E-02 6.473E+01
1.273E-02 2.014E+00 7.422E-02 6.003E+01
1.308E-02 1.956E+00 7.537E-02 5.568E+01
1.344E-02 1.899E+00 7.651E-02 5.165E+01
1.382E-02 1.843E+00 7.765E-02 4.790E+01
1.420E-02 1.787E+00 7.877E-02 4.443E+01
1.459E-02 1.732E+00 7.989E-02 4.121E+01
1.500E-02 1.678E+00 8.101E-02 3.822E+01
