#Photon    Coherent Incoher. Photoel. 
#Energy    Scatter. Scatter. Absorb.  
#
1.000E-03 3.787E-01 1.017E-02 6.044E+01 
1.028E-03 3.773E-01 1.070E-02 5.528E+01 
1.056E-03 3.760E-01 1.125E-02 5.069E+01 
1.086E-03 3.746E-01 1.185E-02 4.630E+01 
1.116E-03 3.732E-01 1.247E-02 4.241E+01 
1.147E-03 3.718E-01 1.311E-02 3.882E+01 
1.178E-03 3.704E-01 1.378E-02 3.562E+01 
1.211E-03 3.688E-01 1.449E-02 3.258E+01 
1.245E-03 3.673E-01 1.525E-02 2.980E+01 
1.279E-03 3.657E-01 1.602E-02 2.733E+01 
1.315E-03 3.640E-01 1.685E-02 2.499E+01 
1.351E-03 3.622E-01 1.770E-02 2.292E+01 
1.389E-03 3.603E-01 1.861E-02 2.096E+01 
1.427E-03 3.584E-01 1.953E-02 1.922E+01 
1.467E-03 3.564E-01 2.052E-02 1.759E+01 
1.507E-03 3.543E-01 2.153E-02 1.614E+01 
1.549E-03 3.520E-01 2.260E-02 1.478E+01 
1.592E-03 3.496E-01 2.371E-02 1.355E+01 
1.636E-03 3.472E-01 2.486E-02 1.242E+01 
1.682E-03 3.445E-01 2.608E-02 1.136E+01 
1.728E-03 3.419E-01 2.732E-02 1.042E+01 
1.776E-03 3.390E-01 2.862E-02 9.546E+00 
1.825E-03 3.361E-01 2.996E-02 8.747E+00 
1.876E-03 3.330E-01 3.138E-02 8.004E+00 
1.928E-03 3.299E-01 3.283E-02 7.327E+00 
1.981E-03 3.266E-01 3.432E-02 6.709E+00 
2.036E-03 3.232E-01 3.588E-02 6.137E+00 
2.093E-03 3.196E-01 3.751E-02 5.606E+00 
2.151E-03 3.160E-01 3.918E-02 5.124E+00 
2.211E-03 3.122E-01 4.091E-02 4.680E+00 
2.272E-03 3.084E-01 4.268E-02 4.276E+00 
2.335E-03 3.044E-01 4.451E-02 3.905E+00 
2.400E-03 3.003E-01 4.640E-02 3.563E+00 
2.466E-03 2.961E-01 4.832E-02 3.254E+00 
2.535E-03 2.917E-01 5.033E-02 2.967E+00 
2.605E-03 2.873E-01 5.236E-02 2.707E+00 
2.677E-03 2.827E-01 5.444E-02 2.470E+00 
2.751E-03 2.781E-01 5.657E-02 2.253E+00 
2.828E-03 2.733E-01 5.878E-02 2.052E+00 
2.906E-03 2.685E-01 6.099E-02 1.872E+00 
2.987E-03 2.635E-01 6.328E-02 1.705E+00 
3.070E-03 2.584E-01 6.559E-02 1.554E+00 
3.155E-03 2.533E-01 6.794E-02 1.417E+00 
3.242E-03 2.482E-01 7.031E-02 1.292E+00 
3.332E-03 2.429E-01 7.273E-02 1.178E+00 
3.424E-03 2.376E-01 7.517E-02 1.074E+00 
3.519E-03 2.322E-01 7.764E-02 9.790E-01 
3.617E-03 2.267E-01 8.015E-02 8.924E-01 
3.717E-03 2.213E-01 8.266E-02 8.142E-01 
3.820E-03 2.158E-01 8.520E-02 7.429E-01 
3.926E-03 2.102E-01 8.775E-02 6.779E-01 
4.035E-03 2.047E-01 9.031E-02 6.188E-01 
4.147E-03 1.991E-01 9.287E-02 5.651E-01 
4.262E-03 1.935E-01 9.544E-02 5.163E-01 
4.380E-03 1.880E-01 9.800E-02 4.718E-01 
4.502E-03 1.824E-01 1.006E-01 4.310E-01 
4.627E-03 1.769E-01 1.031E-01 3.938E-01 
4.755E-03 1.715E-01 1.056E-01 3.599E-01 
4.887E-03 1.661E-01 1.082E-01 3.288E-01 
5.022E-03 1.607E-01 1.107E-01 3.004E-01 
5.162E-03 1.554E-01 1.131E-01 2.742E-01 
5.305E-03 1.503E-01 1.156E-01 2.503E-01 
5.452E-03 1.452E-01 1.180E-01 2.284E-01 
5.603E-03 1.401E-01 1.204E-01 2.084E-01 
5.758E-03 1.352E-01 1.227E-01 1.901E-01 
5.918E-03 1.304E-01 1.250E-01 1.733E-01 
6.082E-03 1.257E-01 1.273E-01 1.579E-01 
6.251E-03 1.210E-01 1.295E-01 1.438E-01 
6.424E-03 1.165E-01 1.317E-01 1.310E-01 
6.602E-03 1.121E-01 1.338E-01 1.193E-01 
6.785E-03 1.078E-01 1.359E-01 1.086E-01 
6.974E-03 1.036E-01 1.379E-01 9.883E-02 
7.167E-03 9.948E-02 1.399E-01 9.000E-02 
7.366E-03 9.551E-02 1.418E-01 8.194E-02 
7.570E-03 9.167E-02 1.436E-01 7.463E-02 
7.780E-03 8.794E-02 1.454E-01 6.798E-02 
7.996E-03 8.432E-02 1.472E-01 6.194E-02 
8.217E-03 8.084E-02 1.489E-01 5.648E-02 
8.445E-03 7.746E-02 1.505E-01 5.151E-02 
8.680E-03 7.418E-02 1.521E-01 4.697E-02 
8.920E-03 7.104E-02 1.536E-01 4.286E-02 
9.168E-03 6.799E-02 1.551E-01 3.909E-02 
9.422E-03 6.506E-02 1.565E-01 3.567E-02 
9.683E-03 6.224E-02 1.578E-01 3.254E-02 
9.952E-03 5.952E-02 1.591E-01 2.968E-02 
1.023E-02 5.691E-02 1.603E-01 2.707E-02 
1.051E-02 5.440E-02 1.615E-01 2.468E-02 
1.080E-02 5.198E-02 1.627E-01 2.249E-02 
1.110E-02 4.966E-02 1.637E-01 2.050E-02 
1.141E-02 4.743E-02 1.648E-01 1.868E-02 
1.173E-02 4.528E-02 1.657E-01 1.701E-02 
1.205E-02 4.322E-02 1.666E-01 1.550E-02 
1.239E-02 4.125E-02 1.675E-01 1.412E-02 
1.273E-02 3.936E-02 1.683E-01 1.286E-02 
1.308E-02 3.754E-02 1.691E-01 1.171E-02 
1.344E-02 3.581E-02 1.698E-01 1.066E-02 
1.382E-02 3.414E-02 1.705E-01 9.711E-03 
1.420E-02 3.254E-02 1.711E-01 8.844E-03 
1.459E-02 3.101E-02 1.717E-01 8.054E-03 
1.500E-02 2.955E-02 1.723E-01 7.335E-03 
