#ASTAR: Stopping Powers and Range Tables for Alpha Particles
#
#ALUMINUM
#
#Kinetic   Electron. Nuclear   Total     CSDA      Projected Detour
#Energy    Stp. Pow. Stp. Pow. Stp. Pow. Range     Range     Factor
#MeV       MeV cm2/g MeV cm2/g MeV cm2/g g/cm2     g/cm2
#
1.000E-03 5.580E+01 7.469E+01 1.305E+02 9.964E-06 2.529E-06 0.2538
1.500E-03 7.189E+01 7.285E+01 1.447E+02 1.358E-05 3.704E-06 0.2728
2.000E-03 8.605E+01 7.032E+01 1.564E+02 1.690E-05 4.895E-06 0.2896
2.500E-03 9.892E+01 6.773E+01 1.667E+02 1.999E-05 6.094E-06 0.3048
3.000E-03 1.109E+02 6.525E+01 1.761E+02 2.291E-05 7.300E-06 0.3186
4.000E-03 1.327E+02 6.078E+01 1.935E+02 2.832E-05 9.717E-06 0.3431
5.000E-03 1.525E+02 5.693E+01 2.095E+02 3.329E-05 1.213E-05 0.3644
6.000E-03 1.709E+02 5.361E+01 2.245E+02 3.790E-05 1.452E-05 0.3832
7.000E-03 1.882E+02 5.072E+01 2.389E+02 4.221E-05 1.689E-05 0.4001
8.000E-03 2.045E+02 4.818E+01 2.527E+02 4.628E-05 1.922E-05 0.4154
9.000E-03 2.201E+02 4.593E+01 2.661E+02 5.014E-05 2.153E-05 0.4294
1.000E-02 2.351E+02 4.391E+01 2.790E+02 5.381E-05 2.379E-05 0.4422
1.250E-02 2.701E+02 3.969E+01 3.098E+02 6.230E-05 2.931E-05 0.4704
1.500E-02 3.025E+02 3.632E+01 3.388E+02 7.001E-05 3.460E-05 0.4942
1.750E-02 3.328E+02 3.355E+01 3.664E+02 7.710E-05 3.969E-05 0.5147
2.000E-02 3.615E+02 3.124E+01 3.927E+02 8.369E-05 4.458E-05 0.5327
2.250E-02 3.886E+02 2.927E+01 4.179E+02 8.986E-05 4.929E-05 0.5485
2.500E-02 4.146E+02 2.756E+01 4.421E+02 9.567E-05 5.384E-05 0.5627
2.750E-02 4.394E+02 2.607E+01 4.655E+02 1.012E-04 5.824E-05 0.5756
3.000E-02 4.633E+02 2.475E+01 4.880E+02 1.064E-04 6.250E-05 0.5872
3.500E-02 5.084E+02 2.253E+01 5.309E+02 1.162E-04 7.064E-05 0.6077
4.000E-02 5.504E+02 2.071E+01 5.711E+02 1.253E-04 7.835E-05 0.6252
4.500E-02 5.896E+02 1.920E+01 6.088E+02 1.338E-04 8.568E-05 0.6404
5.000E-02 6.265E+02 1.792E+01 6.444E+02 1.418E-04 9.269E-05 0.6538
5.500E-02 6.611E+02 1.681E+01 6.779E+02 1.493E-04 9.941E-05 0.6657
6.000E-02 6.937E+02 1.585E+01 7.095E+02 1.565E-04 1.059E-04 0.6764
6.500E-02 7.243E+02 1.501E+01 7.393E+02 1.634E-04 1.121E-04 0.6861
7.000E-02 7.532E+02 1.426E+01 7.674E+02 1.701E-04 1.182E-04 0.6949
7.500E-02 7.803E+02 1.359E+01 7.939E+02 1.765E-04 1.241E-04 0.7030
8.000E-02 8.059E+02 1.298E+01 8.189E+02 1.827E-04 1.298E-04 0.7105
8.500E-02 8.301E+02 1.244E+01 8.425E+02 1.887E-04 1.354E-04 0.7175
9.000E-02 8.528E+02 1.194E+01 8.648E+02 1.946E-04 1.409E-04 0.7240
9.500E-02 8.743E+02 1.148E+01 8.858E+02 2.003E-04 1.462E-04 0.7301
1.000E-01 8.945E+02 1.107E+01 9.056E+02 2.059E-04 1.515E-04 0.7358
1.250E-01 9.800E+02 9.395E+00 9.894E+02 2.322E-04 1.764E-04 0.7599
1.500E-01 1.045E+03 8.198E+00 1.053E+03 2.567E-04 1.999E-04 0.7788
1.750E-01 1.096E+03 7.293E+00 1.103E+03 2.798E-04 2.222E-04 0.7942
2.000E-01 1.136E+03 6.583E+00 1.142E+03 3.021E-04 2.438E-04 0.8071
2.250E-01 1.168E+03 6.009E+00 1.174E+03 3.237E-04 2.648E-04 0.8183
2.500E-01 1.195E+03 5.535E+00 1.200E+03 3.447E-04 2.854E-04 0.8280
2.750E-01 1.216E+03 5.136E+00 1.222E+03 3.654E-04 3.056E-04 0.8365
3.000E-01 1.234E+03 4.795E+00 1.239E+03 3.857E-04 3.256E-04 0.8441
3.500E-01 1.262E+03 4.242E+00 1.266E+03 4.256E-04 3.648E-04 0.8572
4.000E-01 1.280E+03 3.811E+00 1.284E+03 4.648E-04 4.034E-04 0.8680
4.500E-01 1.291E+03 3.466E+00 1.294E+03 5.035E-04 4.417E-04 0.8772
5.000E-01 1.297E+03 3.182E+00 1.300E+03 5.421E-04 4.798E-04 0.8852
5.500E-01 1.298E+03 2.944E+00 1.301E+03 5.805E-04 5.179E-04 0.8921
6.000E-01 1.297E+03 2.742E+00 1.300E+03 6.189E-04 5.560E-04 0.8982
6.500E-01 1.293E+03 2.567E+00 1.295E+03 6.575E-04 5.942E-04 0.9037
7.000E-01 1.286E+03 2.415E+00 1.289E+03 6.962E-04 6.326E-04 0.9086
7.500E-01 1.279E+03 2.282E+00 1.281E+03 7.351E-04 6.712E-04 0.9131
8.000E-01 1.269E+03 2.163E+00 1.271E+03 7.743E-04 7.101E-04 0.9171
8.500E-01 1.259E+03 2.057E+00 1.261E+03 8.137E-04 7.493E-04 0.9208
9.000E-01 1.248E+03 1.961E+00 1.250E+03 8.536E-04 7.889E-04 0.9242
9.500E-01 1.237E+03 1.875E+00 1.238E+03 8.937E-04 8.289E-04 0.9274
1.000E+00 1.225E+03 1.796E+00 1.226E+03 9.343E-04 8.692E-04 0.9303
1.250E+00 1.161E+03 1.490E+00 1.163E+03 1.144E-03 1.077E-03 0.9422
1.500E+00 1.098E+03 1.277E+00 1.100E+03 1.365E-03 1.298E-03 0.9509
1.750E+00 1.039E+03 1.120E+00 1.040E+03 1.598E-03 1.531E-03 0.9575
2.000E+00 9.849E+02 1.000E+00 9.859E+02 1.845E-03 1.777E-03 0.9628
2.250E+00 9.376E+02 9.042E-01 9.385E+02 2.105E-03 2.036E-03 0.9670
2.500E+00 8.954E+02 8.261E-01 8.962E+02 2.378E-03 2.308E-03 0.9705
2.750E+00 8.568E+02 7.612E-01 8.576E+02 2.663E-03 2.592E-03 0.9734
3.000E+00 8.210E+02 7.062E-01 8.217E+02 2.961E-03 2.890E-03 0.9758
3.500E+00 7.561E+02 6.182E-01 7.568E+02 3.596E-03 3.523E-03 0.9797
4.000E+00 6.986E+02 5.506E-01 6.991E+02 4.283E-03 4.209E-03 0.9826
4.500E+00 6.478E+02 4.971E-01 6.483E+02 5.027E-03 4.951E-03 0.9849
5.000E+00 6.048E+02 4.535E-01 6.053E+02 5.825E-03 5.748E-03 0.9867
5.500E+00 5.678E+02 4.173E-01 5.683E+02 6.678E-03 6.600E-03 0.9882
6.000E+00 5.357E+02 3.867E-01 5.361E+02 7.585E-03 7.504E-03 0.9894
6.500E+00 5.074E+02 3.605E-01 5.078E+02 8.544E-03 8.462E-03 0.9904
7.000E+00 4.824E+02 3.379E-01 4.827E+02 9.554E-03 9.470E-03 0.9913
7.500E+00 4.600E+02 3.180E-01 4.603E+02 1.061E-02 1.053E-02 0.9920
8.000E+00 4.398E+02 3.004E-01 4.401E+02 1.173E-02 1.164E-02 0.9926
8.500E+00 4.216E+02 2.848E-01 4.219E+02 1.289E-02 1.280E-02 0.9931
9.000E+00 4.051E+02 2.708E-01 4.053E+02 1.410E-02 1.401E-02 0.9936
9.500E+00 3.899E+02 2.582E-01 3.902E+02 1.535E-02 1.526E-02 0.9940
1.000E+01 3.760E+02 2.468E-01 3.762E+02 1.666E-02 1.656E-02 0.9944
1.250E+01 3.205E+02 2.025E-01 3.207E+02 2.388E-02 2.378E-02 0.9957
1.500E+01 2.807E+02 1.722E-01 2.809E+02 3.224E-02 3.212E-02 0.9964
1.750E+01 2.507E+02 1.501E-01 2.509E+02 4.167E-02 4.155E-02 0.9970
2.000E+01 2.271E+02 1.332E-01 2.272E+02 5.216E-02 5.202E-02 0.9973
2.500E+01 1.922E+02 1.090E-01 1.923E+02 7.617E-02 7.601E-02 0.9978
2.750E+01 1.789E+02 1.001E-01 1.790E+02 8.966E-02 8.948E-02 0.9980
3.000E+01 1.675E+02 9.251E-02 1.676E+02 1.041E-01 1.039E-01 0.9981
3.500E+01 1.489E+02 8.048E-02 1.490E+02 1.358E-01 1.356E-01 0.9983
4.000E+01 1.344E+02 7.131E-02 1.345E+02 1.712E-01 1.709E-01 0.9984
4.500E+01 1.227E+02 6.407E-02 1.228E+02 2.102E-01 2.098E-01 0.9985
5.000E+01 1.131E+02 5.820E-02 1.132E+02 2.526E-01 2.523E-01 0.9986
5.500E+01 1.050E+02 5.334E-02 1.051E+02 2.985E-01 2.981E-01 0.9987
6.000E+01 9.812E+01 4.925E-02 9.817E+01 3.478E-01 3.473E-01 0.9987
6.500E+01 9.217E+01 4.577E-02 9.222E+01 4.003E-01 3.999E-01 0.9988
7.000E+01 8.697E+01 4.275E-02 8.701E+01 4.562E-01 4.556E-01 0.9988
7.500E+01 8.239E+01 4.012E-02 8.243E+01 5.153E-01 5.147E-01 0.9988
8.000E+01 7.831E+01 3.780E-02 7.835E+01 5.775E-01 5.768E-01 0.9988
8.500E+01 7.467E+01 3.574E-02 7.470E+01 6.429E-01 6.422E-01 0.9989
9.000E+01 7.138E+01 3.390E-02 7.142E+01 7.114E-01 7.106E-01 0.9989
9.500E+01 6.841E+01 3.225E-02 6.844E+01 7.829E-01 7.820E-01 0.9989
1.000E+02 6.570E+01 3.075E-02 6.573E+01 8.575E-01 8.565E-01 0.9989
1.250E+02 5.511E+01 2.496E-02 5.514E+01 1.275E+00 1.273E+00 0.9990
1.500E+02 4.776E+01 2.104E-02 4.778E+01 1.763E+00 1.761E+00 0.9990
1.750E+02 4.233E+01 1.820E-02 4.235E+01 2.320E+00 2.318E+00 0.9991
2.000E+02 3.816E+01 1.604E-02 3.817E+01 2.943E+00 2.940E+00 0.9991
2.250E+02 3.483E+01 1.434E-02 3.485E+01 3.629E+00 3.626E+00 0.9991
2.500E+02 3.213E+01 1.297E-02 3.214E+01 4.377E+00 4.373E+00 0.9991
2.750E+02 2.987E+01 1.184E-02 2.989E+01 5.184E+00 5.180E+00 0.9991
3.000E+02 2.797E+01 1.089E-02 2.798E+01 6.050E+00 6.044E+00 0.9992
3.500E+02 2.492E+01 9.385E-03 2.493E+01 7.947E+00 7.940E+00 0.9992
4.000E+02 2.259E+01 8.252E-03 2.260E+01 1.006E+01 1.005E+01 0.9992
4.500E+02 2.075E+01 7.365E-03 2.075E+01 1.237E+01 1.236E+01 0.9992
5.000E+02 1.925E+01 6.651E-03 1.925E+01 1.487E+01 1.486E+01 0.9992
5.500E+02 1.801E+01 6.062E-03 1.801E+01 1.756E+01 1.755E+01 0.9993
6.000E+02 1.696E+01 5.568E-03 1.697E+01 2.042E+01 2.041E+01 0.9993
6.500E+02 1.607E+01 5.147E-03 1.608E+01 2.345E+01 2.343E+01 0.9993
7.000E+02 1.530E+01 4.785E-03 1.531E+01 2.664E+01 2.662E+01 0.9993
7.500E+02 1.463E+01 4.471E-03 1.464E+01 2.998E+01 2.996E+01 0.9993
8.000E+02 1.404E+01 4.196E-03 1.405E+01 3.347E+01 3.345E+01 0.9993
8.500E+02 1.352E+01 3.954E-03 1.352E+01 3.710E+01 3.707E+01 0.9993
9.000E+02 1.305E+01 3.738E-03 1.305E+01 4.086E+01 4.084E+01 0.9993
9.500E+02 1.263E+01 3.545E-03 1.263E+01 4.476E+01 4.473E+01 0.9993
1.000E+03 1.225E+01 3.371E-03 1.225E+01 4.878E+01 4.874E+01 0.9993
