#ASTAR: Stopping Powers and Range Tables for Alpha Particles
#
#BERYLLIUM
#
#Kinetic   Electron. Nuclear   Total     CSDA      Projected Detour
#Energy    Stp. Pow. Stp. Pow. Stp. Pow. Range     Range     Factor
#MeV       MeV cm2/g MeV cm2/g MeV cm2/g g/cm2     g/cm2
#
1.000E-03 1.463E+02 1.669E+02 3.132E+02 3.660E-06 1.881E-06 0.5138
1.500E-03 1.771E+02 1.503E+02 3.274E+02 5.214E-06 2.833E-06 0.5433
2.000E-03 2.029E+02 1.370E+02 3.399E+02 6.713E-06 3.807E-06 0.5671
2.500E-03 2.254E+02 1.263E+02 3.517E+02 8.159E-06 4.789E-06 0.5870
3.000E-03 2.456E+02 1.174E+02 3.630E+02 9.558E-06 5.773E-06 0.6040
4.000E-03 2.813E+02 1.033E+02 3.847E+02 1.223E-05 7.731E-06 0.6320
5.000E-03 3.125E+02 9.275E+01 4.053E+02 1.477E-05 9.662E-06 0.6544
6.000E-03 3.406E+02 8.441E+01 4.250E+02 1.717E-05 1.156E-05 0.6730
7.000E-03 3.662E+02 7.764E+01 4.439E+02 1.948E-05 1.342E-05 0.6888
8.000E-03 3.900E+02 7.202E+01 4.620E+02 2.168E-05 1.523E-05 0.7025
9.000E-03 4.122E+02 6.726E+01 4.795E+02 2.381E-05 1.701E-05 0.7145
1.000E-02 4.332E+02 6.317E+01 4.964E+02 2.586E-05 1.875E-05 0.7252
1.250E-02 4.811E+02 5.505E+01 5.361E+02 3.070E-05 2.294E-05 0.7473
1.500E-02 5.241E+02 4.898E+01 5.731E+02 3.521E-05 2.693E-05 0.7649
1.750E-02 5.633E+02 4.425E+01 6.076E+02 3.944E-05 3.074E-05 0.7794
2.000E-02 5.997E+02 4.044E+01 6.401E+02 4.345E-05 3.439E-05 0.7915
2.250E-02 6.336E+02 3.730E+01 6.709E+02 4.726E-05 3.790E-05 0.8018
2.500E-02 6.654E+02 3.465E+01 7.001E+02 5.091E-05 4.128E-05 0.8109
2.750E-02 6.956E+02 3.240E+01 7.280E+02 5.441E-05 4.455E-05 0.8188
3.000E-02 7.242E+02 3.045E+01 7.547E+02 5.778E-05 4.772E-05 0.8258
3.500E-02 7.777E+02 2.724E+01 8.050E+02 6.420E-05 5.378E-05 0.8378
4.000E-02 8.270E+02 2.469E+01 8.517E+02 7.023E-05 5.953E-05 0.8477
4.500E-02 8.727E+02 2.262E+01 8.953E+02 7.595E-05 6.502E-05 0.8560
5.000E-02 9.155E+02 2.090E+01 9.364E+02 8.141E-05 7.028E-05 0.8632
5.500E-02 9.557E+02 1.945E+01 9.752E+02 8.665E-05 7.533E-05 0.8694
6.000E-02 9.937E+02 1.820E+01 1.012E+03 9.168E-05 8.021E-05 0.8749
6.500E-02 1.030E+03 1.711E+01 1.047E+03 9.653E-05 8.493E-05 0.8798
7.000E-02 1.064E+03 1.616E+01 1.080E+03 1.012E-04 8.951E-05 0.8842
7.500E-02 1.096E+03 1.532E+01 1.112E+03 1.058E-04 9.397E-05 0.8882
8.000E-02 1.128E+03 1.457E+01 1.142E+03 1.102E-04 9.831E-05 0.8918
8.500E-02 1.157E+03 1.389E+01 1.171E+03 1.146E-04 1.025E-04 0.8951
9.000E-02 1.186E+03 1.328E+01 1.199E+03 1.188E-04 1.067E-04 0.8981
9.500E-02 1.213E+03 1.273E+01 1.226E+03 1.229E-04 1.107E-04 0.9009
1.000E-01 1.239E+03 1.222E+01 1.252E+03 1.269E-04 1.147E-04 0.9036
1.250E-01 1.356E+03 1.023E+01 1.366E+03 1.460E-04 1.335E-04 0.9142
1.500E-01 1.453E+03 8.833E+00 1.462E+03 1.637E-04 1.510E-04 0.9222
1.750E-01 1.534E+03 7.794E+00 1.542E+03 1.803E-04 1.674E-04 0.9285
2.000E-01 1.602E+03 6.988E+00 1.609E+03 1.962E-04 1.832E-04 0.9336
2.250E-01 1.659E+03 6.343E+00 1.665E+03 2.114E-04 1.983E-04 0.9379
2.500E-01 1.706E+03 5.815E+00 1.712E+03 2.262E-04 2.130E-04 0.9416
2.750E-01 1.745E+03 5.373E+00 1.750E+03 2.407E-04 2.274E-04 0.9448
3.000E-01 1.776E+03 4.998E+00 1.781E+03 2.548E-04 2.415E-04 0.9475
3.500E-01 1.821E+03 4.394E+00 1.825E+03 2.825E-04 2.690E-04 0.9523
4.000E-01 1.846E+03 3.928E+00 1.850E+03 3.097E-04 2.961E-04 0.9561
4.500E-01 1.856E+03 3.557E+00 1.860E+03 3.367E-04 3.230E-04 0.9594
5.000E-01 1.855E+03 3.254E+00 1.858E+03 3.636E-04 3.498E-04 0.9622
5.500E-01 1.845E+03 3.002E+00 1.848E+03 3.905E-04 3.767E-04 0.9646
6.000E-01 1.829E+03 2.788E+00 1.832E+03 4.177E-04 4.038E-04 0.9668
6.500E-01 1.809E+03 2.604E+00 1.812E+03 4.451E-04 4.312E-04 0.9687
7.000E-01 1.785E+03 2.444E+00 1.788E+03 4.729E-04 4.589E-04 0.9704
7.500E-01 1.759E+03 2.304E+00 1.762E+03 5.011E-04 4.870E-04 0.9720
8.000E-01 1.732E+03 2.180E+00 1.734E+03 5.297E-04 5.156E-04 0.9734
8.500E-01 1.703E+03 2.070E+00 1.705E+03 5.588E-04 5.446E-04 0.9747
9.000E-01 1.674E+03 1.970E+00 1.676E+03 5.883E-04 5.742E-04 0.9759
9.500E-01 1.645E+03 1.881E+00 1.647E+03 6.184E-04 6.042E-04 0.9770
1.000E+00 1.617E+03 1.799E+00 1.618E+03 6.490E-04 6.348E-04 0.9780
1.250E+00 1.499E+03 1.484E+00 1.500E+03 8.098E-04 7.953E-04 0.9821
1.500E+00 1.406E+03 1.266E+00 1.407E+03 9.819E-04 9.673E-04 0.9851
1.750E+00 1.326E+03 1.107E+00 1.327E+03 1.165E-03 1.150E-03 0.9873
2.000E+00 1.254E+03 9.853E-01 1.255E+03 1.359E-03 1.344E-03 0.9890
2.250E+00 1.189E+03 8.887E-01 1.190E+03 1.563E-03 1.548E-03 0.9903
2.500E+00 1.129E+03 8.102E-01 1.130E+03 1.779E-03 1.764E-03 0.9914
2.750E+00 1.075E+03 7.450E-01 1.075E+03 2.006E-03 1.991E-03 0.9923
3.000E+00 1.024E+03 6.900E-01 1.025E+03 2.244E-03 2.229E-03 0.9931
3.500E+00 9.353E+02 6.021E-01 9.359E+02 2.755E-03 2.739E-03 0.9943
4.000E+00 8.587E+02 5.350E-01 8.592E+02 3.313E-03 3.297E-03 0.9951
4.500E+00 7.929E+02 4.818E-01 7.934E+02 3.919E-03 3.903E-03 0.9958
5.000E+00 7.376E+02 4.387E-01 7.380E+02 4.573E-03 4.556E-03 0.9963
5.500E+00 6.900E+02 4.030E-01 6.904E+02 5.274E-03 5.257E-03 0.9968
6.000E+00 6.487E+02 3.729E-01 6.491E+02 6.021E-03 6.004E-03 0.9971
6.500E+00 6.125E+02 3.471E-01 6.128E+02 6.814E-03 6.797E-03 0.9974
7.000E+00 5.804E+02 3.248E-01 5.808E+02 7.653E-03 7.635E-03 0.9976
7.500E+00 5.520E+02 3.053E-01 5.523E+02 8.536E-03 8.518E-03 0.9978
8.000E+00 5.264E+02 2.881E-01 5.267E+02 9.463E-03 9.445E-03 0.9980
8.500E+00 5.033E+02 2.728E-01 5.036E+02 1.043E-02 1.042E-02 0.9982
9.000E+00 4.824E+02 2.591E-01 4.826E+02 1.145E-02 1.143E-02 0.9983
9.500E+00 4.633E+02 2.468E-01 4.636E+02 1.251E-02 1.249E-02 0.9984
1.000E+01 4.458E+02 2.357E-01 4.461E+02 1.361E-02 1.359E-02 0.9985
1.250E+01 3.763E+02 1.926E-01 3.765E+02 1.973E-02 1.971E-02 0.9989
1.500E+01 3.270E+02 1.632E-01 3.272E+02 2.687E-02 2.685E-02 0.9991
1.750E+01 2.900E+02 1.418E-01 2.901E+02 3.501E-02 3.498E-02 0.9992
2.000E+01 2.610E+02 1.255E-01 2.612E+02 4.410E-02 4.407E-02 0.9993
2.500E+01 2.187E+02 1.022E-01 2.188E+02 6.511E-02 6.508E-02 0.9994
2.750E+01 2.026E+02 9.359E-02 2.027E+02 7.700E-02 7.695E-02 0.9995
3.000E+01 1.889E+02 8.635E-02 1.890E+02 8.978E-02 8.973E-02 0.9995
3.500E+01 1.669E+02 7.483E-02 1.670E+02 1.180E-01 1.179E-01 0.9995
4.000E+01 1.498E+02 6.605E-02 1.498E+02 1.496E-01 1.496E-01 0.9996
4.500E+01 1.361E+02 5.915E-02 1.362E+02 1.847E-01 1.846E-01 0.9996
5.000E+01 1.249E+02 5.358E-02 1.250E+02 2.231E-01 2.230E-01 0.9996
5.500E+01 1.156E+02 4.900E-02 1.156E+02 2.647E-01 2.646E-01 0.9996
6.000E+01 1.077E+02 4.514E-02 1.077E+02 3.095E-01 3.094E-01 0.9997
6.500E+01 1.009E+02 4.185E-02 1.009E+02 3.575E-01 3.574E-01 0.9997
7.000E+01 9.493E+01 3.901E-02 9.496E+01 4.086E-01 4.085E-01 0.9997
7.500E+01 8.972E+01 3.653E-02 8.976E+01 4.628E-01 4.627E-01 0.9997
8.000E+01 8.511E+01 3.434E-02 8.514E+01 5.200E-01 5.199E-01 0.9997
8.500E+01 8.099E+01 3.240E-02 8.103E+01 5.802E-01 5.801E-01 0.9997
9.000E+01 7.730E+01 3.068E-02 7.733E+01 6.434E-01 6.432E-01 0.9997
9.500E+01 7.396E+01 2.912E-02 7.399E+01 7.095E-01 7.093E-01 0.9997
1.000E+02 7.092E+01 2.772E-02 7.095E+01 7.786E-01 7.783E-01 0.9997
1.250E+02 5.914E+01 2.236E-02 5.916E+01 1.166E+00 1.166E+00 0.9997
1.500E+02 5.101E+01 1.875E-02 5.103E+01 1.623E+00 1.622E+00 0.9997
1.750E+02 4.505E+01 1.615E-02 4.507E+01 2.145E+00 2.145E+00 0.9997
2.000E+02 4.049E+01 1.418E-02 4.050E+01 2.731E+00 2.731E+00 0.9998
2.250E+02 3.687E+01 1.263E-02 3.688E+01 3.379E+00 3.378E+00 0.9998
2.500E+02 3.393E+01 1.138E-02 3.394E+01 4.086E+00 4.085E+00 0.9998
2.750E+02 3.150E+01 1.037E-02 3.151E+01 4.852E+00 4.850E+00 0.9998
3.000E+02 2.944E+01 9.519E-03 2.945E+01 5.673E+00 5.672E+00 0.9998
3.500E+02 2.616E+01 8.180E-03 2.617E+01 7.478E+00 7.476E+00 0.9998
4.000E+02 2.366E+01 7.163E-03 2.366E+01 9.491E+00 9.489E+00 0.9998
4.500E+02 2.168E+01 6.369E-03 2.169E+01 1.170E+01 1.170E+01 0.9998
5.000E+02 2.008E+01 5.738E-03 2.009E+01 1.410E+01 1.410E+01 0.9998
5.500E+02 1.876E+01 5.222E-03 1.877E+01 1.668E+01 1.667E+01 0.9998
6.000E+02 1.765E+01 4.790E-03 1.766E+01 1.942E+01 1.942E+01 0.9998
6.500E+02 1.670E+01 4.423E-03 1.671E+01 2.234E+01 2.233E+01 0.9998
7.000E+02 1.589E+01 4.109E-03 1.589E+01 2.541E+01 2.540E+01 0.9998
7.500E+02 1.517E+01 3.836E-03 1.518E+01 2.863E+01 2.862E+01 0.9998
8.000E+02 1.455E+01 3.598E-03 1.455E+01 3.199E+01 3.199E+01 0.9998
8.500E+02 1.399E+01 3.388E-03 1.400E+01 3.550E+01 3.549E+01 0.9998
9.000E+02 1.350E+01 3.201E-03 1.350E+01 3.914E+01 3.913E+01 0.9998
9.500E+02 1.305E+01 3.033E-03 1.306E+01 4.290E+01 4.290E+01 0.9998
1.000E+03 1.265E+01 2.882E-03 1.266E+01 4.679E+01 4.678E+01 0.9998
